Energy XANES
386.0976257324219 3.315414687676821e-06
386.11761474609375 3.4361287362116855e-06
386.13763427734375 3.587428182072472e-06
386.1576232910156 3.736397957254667e-06
386.1776428222656 3.8823168324597646e-06
386.1976318359375 4.023654582852032e-06
386.2176208496094 4.159667241765419e-06
386.2376403808594 4.2897099774563685e-06
386.25762939453125 4.412696398503613e-06
386.2776184082031 4.528304543782724e-06
386.2976379394531 4.636321136786137e-06
386.317626953125 4.736211849376559e-06
386.3376159667969 4.8280926421284676e-06
386.3576354980469 4.912167241855059e-06
386.37762451171875 4.988393357052701e-06
386.39764404296875 5.057318958279211e-06
386.4176330566406 5.119137313158717e-06
386.4376525878906 5.174507350602653e-06
386.4576416015625 5.2237783165764995e-06
386.4776306152344 5.267584128887393e-06
386.4976501464844 5.3065323299961165e-06
386.51763916015625 5.341056748875417e-06
386.5376281738281 5.371751740312902e-06
386.5576477050781 5.399163910624338e-06
386.57763671875 5.42368070455268e-06
386.5976257324219 5.4457768783322535e-06
386.6176452636719 5.465872163767926e-06
386.63763427734375 5.484250323206652e-06
386.6576232910156 5.5012465054460336e-06
386.6776428222656 5.517144927580375e-06
386.6976318359375 5.532120667339768e-06
386.7176513671875 5.546407010115217e-06
386.7376403808594 5.560117642744444e-06
386.75762939453125 5.573403541347943e-06
386.77764892578125 5.5863879424578045e-06
386.7976379394531 5.599114956567064e-06
386.817626953125 5.611671440419741e-06
386.837646484375 5.6241296988446265e-06
386.8576354980469 5.636491550831124e-06
386.87762451171875 5.648807473335182e-06
386.89764404296875 5.661120212607784e-06
386.9176330566406 5.673410669260193e-06
386.9376525878906 5.685729320248356e-06
386.9576416015625 5.69804842598387e-06
386.9776611328125 5.710413461201824e-06
386.9976501464844 5.722790774598252e-06
387.01763916015625 5.7352053772774525e-06
387.03765869140625 5.747676823375514e-06
387.0576477050781 5.760169187851716e-06
387.07763671875 5.772704298578901e-06
387.09765625 5.785300345451105e-06
387.1176452636719 5.7979204939329065e-06
387.13763427734375 5.810584752907744e-06
387.15765380859375 5.823312676511705e-06
387.1776428222656 5.836066520714667e-06
387.1976623535156 5.848884939041454e-06
387.2176513671875 5.861728823219892e-06
387.2376403808594 5.8746186368807685e-06
387.2576599121094 5.887574388907524e-06
387.27764892578125 5.90055606153328e-06
387.2976379394531 5.913585482630879e-06
387.3176574707031 5.9266835705784615e-06
387.337646484375 5.939808488619747e-06
387.3576354980469 5.952981155132875e-06
387.3776550292969 5.966222488495987e-06
387.39764404296875 5.979492016194854e-06
387.4176330566406 5.992810656607617e-06
387.4376525878906 6.006200237607118e-06
387.4576721191406 6.019638021825813e-06
387.4776611328125 6.0331049098749645e-06
387.4976501464844 6.046622274880065e-06
387.5176696777344 6.060210580471903e-06
387.53765869140625 6.0738270803994965e-06
387.5576477050781 6.087494512030389e-06
387.5776672363281 6.101234248490073e-06
387.59765625 6.115002634032862e-06
387.6176452636719 6.128821951278951e-06
387.6376647949219 6.142712663859129e-06
387.65765380859375 6.156634299259167e-06
387.6776428222656 6.1706077758572064e-06
387.6976623535156 6.1846540120313875e-06
387.7176513671875 6.198729352036025e-06
387.7376708984375 6.2128797253535595e-06
387.7576599121094 6.227061476238305e-06
387.77764892578125 6.241296432563104e-06
387.79766845703125 6.255607331695501e-06
387.8176574707031 6.269949608395109e-06
387.837646484375 6.2843464547768235e-06
387.857666015625 6.298820608208189e-06
387.8776550292969 6.3133293224382214e-06
387.89764404296875 6.3278921516030096e-06
387.91766357421875 6.342534106806852e-06
387.9376525878906 6.35720971331466e-06
387.9576721191406 6.371965355356224e-06
387.9776611328125 6.386755558196455e-06
387.9976806640625 6.401625796570443e-06
388.0176696777344 6.416531505237799e-06
388.03765869140625 6.4314940573240165e-06
388.05767822265625 6.446538918680744e-06
388.0776672363281 6.461616976594087e-06
388.09765625 6.4767541516630445e-06
388.11767578125 6.491973181255162e-06
388.1376647949219 6.507228135887999e-06
388.15765380859375 6.52254129818175e-06
388.17767333984375 6.537937224493362e-06
388.1976623535156 6.553368621098343e-06
388.2176818847656 6.5688846007105894e-06
388.2376708984375 6.584435141121503e-06
388.2576599121094 6.600045253435383e-06
388.2776794433594 6.615742222493282e-06
388.29766845703125 6.631474207097199e-06
388.3176574707031 6.647269401582889e-06
388.3376770019531 6.6631496338231955e-06
388.357666015625 6.679068064840976e-06
388.3776550292969 6.69504970574053e-06
388.3976745605469 6.711118658131454e-06
388.41766357421875 6.727228083036607e-06
388.4376525878906 6.743401172570884e-06
388.4576721191406 6.759663847333286e-06
388.4776611328125 6.775966994609917e-06
388.4976806640625 6.792360181862023e-06
388.5176696777344 6.8087947511230595e-06
388.5376892089844 6.825321179348975e-06
388.55767822265625 6.841889444331173e-06
388.5776672363281 6.858523647679249e-06
388.5976867675781 6.875250619486906e-06
388.61767578125 6.892019882798195e-06
388.6376647949219 6.908857358212117e-06
388.6576843261719 6.92578760208562e-06
388.67767333984375 6.942761956452159e-06
388.69769287109375 6.959829079278279e-06
388.7176818847656 6.976938948355382e-06
388.7376708984375 6.994119758019224e-06
388.7576904296875 7.01139515513205e-06
388.7776794433594 7.0287146627379116e-06
388.79766845703125 7.046104656183161e-06
388.81768798828125 7.063592420308851e-06
388.8376770019531 7.0811247496749274e-06
388.857666015625 7.0987280196277425e-06
388.877685546875 7.116432698239805e-06
388.8976745605469 7.134183761081658e-06
388.91766357421875 7.1520066740049515e-06
388.93768310546875 7.169933724071598e-06
388.9576721191406 7.187905794125982e-06
388.9776916503906 7.205981546576368e-06
388.9976806640625 7.224105047498597e-06
389.0177001953125 7.24233314031153e-06
389.0376892089844 7.260609436343657e-06
389.05767822265625 7.2789630394254345e-06
389.07769775390625 7.297421689145267e-06
389.0976867675781 7.315930815821048e-06
389.11767578125 7.334515430557076e-06
389.1376953125 7.353207365667913e-06
389.1576843261719 7.37195023248205e-06
389.17767333984375 7.39077222533524e-06
389.19769287109375 7.4097006290685385e-06
389.2176818847656 7.4286817834945396e-06
389.2377014160156 7.4477711677900515e-06
389.2576904296875 7.466912393283565e-06
389.2776794433594 7.4861345638055354e-06
389.2976989746094 7.505468602175824e-06
389.31768798828125 7.524855845986167e-06
389.3376770019531 7.544324944319669e-06
389.3576965332031 7.563910003227647e-06
389.377685546875 7.58354872232303e-06
389.3976745605469 7.603272024425678e-06
389.4176940917969 7.623112651344854e-06
389.43768310546875 7.64300966693554e-06
389.45770263671875 7.663024916837458e-06
389.4776916503906 7.683097464905586e-06
389.4976806640625 7.703259143454488e-06
389.5177001953125 7.723539965809323e-06
389.5376892089844 7.743879905319773e-06
389.5577087402344 7.764339898130856e-06
389.57769775390625 7.78486173658166e-06
389.5976867675781 7.805472705513239e-06
389.6177062988281 7.82620827521896e-06
389.6376953125 7.847002962080296e-06
389.6576843261719 7.86788859841181e-06
389.6777038574219 7.88890065450687e-06
389.69769287109375 7.909970918262843e-06
389.71771240234375 7.931166692287661e-06
389.7377014160156 7.952423402457498e-06
389.7576904296875 7.973775609571021e-06
389.7777099609375 7.995255145942792e-06
389.7976989746094 8.016793799470179e-06
389.81768798828125 8.038430678425357e-06
389.83770751953125 8.060195796133485e-06
389.8576965332031 8.082025487965439e-06
389.877685546875 8.10395158623578e-06
389.897705078125 8.126009561237879e-06
389.9176940917969 8.148135748342611e-06
389.93768310546875 8.170360160875134e-06
389.95770263671875 8.192720997612923e-06
389.9776916503906 8.215149136958644e-06
389.9977111816406 8.237715519499034e-06
390.0177001953125 8.260351023636758e-06
390.0376892089844 8.283092029159889e-06
390.0577087402344 8.305973096867092e-06
390.07769775390625 8.328925105161034e-06
390.09771728515625 8.352018994628452e-06
390.1177062988281 8.375185643672012e-06
390.1376953125 8.398461432079785e-06
390.15771484375 8.42188183014514e-06
390.1777038574219 8.445375897281338e-06
390.19769287109375 8.46898001327645e-06
390.21771240234375 8.492732376907952e-06
390.2377014160156 8.516558409610298e-06
390.2577209472656 8.54053178045433e-06
390.2777099609375 8.56458063935861e-06
390.2976989746094 8.588745913584717e-06
390.3177185058594 8.613057616457809e-06
390.33770751953125 8.637450264359359e-06
390.3576965332031 8.66195659909863e-06
390.3777160644531 8.686617547937203e-06
390.397705078125 8.711356713320129e-06
390.4176940917969 8.736213203519583e-06
390.4377136230469 8.761228855291847e-06
390.45770263671875 8.786322723608464e-06
390.47772216796875 8.811579391476698e-06
390.4977111816406 8.836916094878688e-06
390.5177001953125 8.862378308549523e-06
390.5377197265625 8.887998774298467e-06
390.5577087402344 8.913708370528184e-06
390.57769775390625 8.939541658037342e-06
390.59771728515625 8.965541383076925e-06
390.6177062988281 8.991628419607878e-06
390.6377258300781 9.017882803163957e-06
390.65771484375 9.044225407706108e-06
390.6777038574219 9.070698069990613e-06
390.6977233886719 9.09734171727905e-06
390.71771240234375 9.124074495048262e-06
390.73773193359375 9.15098007681081e-06
390.7577209472656 9.177976608043537e-06
390.7777099609375 9.205105925502721e-06
390.7977294921875 9.232410775439348e-06
390.8177185058594 9.259808393835556e-06
390.83770751953125 9.287343345931731e-06
390.85772705078125 9.315053830505349e-06
390.8777160644531 9.342862540506758e-06
390.897705078125 9.370809493702836e-06
390.917724609375 9.398937436344568e-06
390.9377136230469 9.427165423403494e-06
390.95770263671875 9.455536201130599e-06
390.97772216796875 9.484094334766269e-06
390.9977111816406 9.512751603324432e-06
391.0177307128906 9.541602594254073e-06
391.0377197265625 9.570557267579716e-06
391.0577087402344 9.599658369552344e-06
391.0777282714844 9.628955922380555e-06
391.09771728515625 9.658361705078278e-06
391.1177062988281 9.687917554401793e-06
391.1377258300781 9.717675311549101e-06
391.15771484375 9.747542208060622e-06
391.177734375 9.777610102901235e-06
391.1977233886719 9.807788956095465e-06
391.2177429199219 9.838171536102891e-06
391.23773193359375 9.868666893453337e-06
391.2577209472656 9.899321412376594e-06
391.2777404785156 9.930181477102451e-06
391.2977294921875 9.961157957150135e-06
391.3177185058594 9.992296327254735e-06
391.3377380371094 1.0023644790635444e-05
391.35772705078125 1.0055110578832682e-05
391.3777160644531 1.0086741895065643e-05
391.3977355957031 1.0118589671037626e-05
391.417724609375 1.0150554771826137e-05
391.4377136230469 1.0182688129134476e-05
391.4577331542969 1.0215046131634153e-05
391.47772216796875 1.0247526006423868e-05
391.49774169921875 1.0280227797920816e-05
391.5177307128906 1.031305600918131e-05
391.5377197265625 1.0346060662413947e-05
391.5577392578125 1.0379297236795537e-05
391.5777282714844 1.0412660230940674e-05
391.59771728515625 1.0446208762004972e-05
391.61773681640625 1.0479992852197029e-05
391.6377258300781 1.0513907909626141e-05
391.65771484375 1.054801123245852e-05
391.677734375 1.0582354661892168e-05
391.6977233886719 1.0616836334520485e-05
391.7177429199219 1.065156266122358e-05
391.73773193359375 1.068643086910015e-05
391.75775146484375 1.0721544640546199e-05
391.7777404785156 1.0756800293165725e-05
391.7977294921875 1.0792253306135535e-05
391.8177490234375 1.0827957339643035e-05
391.8377380371094 1.0863808711292222e-05
391.85772705078125 1.0899862900259905e-05
391.87774658203125 1.0936172657238785e-05
391.8977355957031 1.0972629752359353e-05
391.917724609375 1.1009295121766627e-05
391.937744140625 1.1046224244637415e-05
391.9577331542969 1.1083305253123399e-05
391.9777526855469 1.1120653653051704e-05
391.99774169921875 1.1158158486068714e-05
392.0177307128906 1.1195877959835343e-05
392.0377502441406 1.1233870282012504e-05
392.0577392578125 1.1272026313235983e-05
392.0777282714844 1.1310400623187888e-05
392.0977478027344 1.1349055967002641e-05
392.11773681640625 1.1387875929358415e-05
392.1377258300781 1.1426924174884334e-05
392.1577453613281 1.1466261639725417e-05
392.177734375 1.150576827058103e-05
392.1977233886719 1.1545506822585594e-05
392.2177429199219 1.1585540960368235e-05
392.2377624511719 1.1625812476268038e-05
392.25775146484375 1.166625770565588e-05
392.2777404785156 1.1706944860634394e-05
392.2977600097656 1.1747937605832703e-05
392.3177490234375 1.1789109521487262e-05
392.3377380371094 1.18305270007113e-05
392.3577575683594 1.1872254617628641e-05
392.37774658203125 1.1914169590454549e-05
392.3977355957031 1.1956335583818145e-05
392.4177551269531 1.199881899083266e-05
392.437744140625 1.204149430122925e-05
392.4577331542969 1.2084427908121143e-05
392.4777526855469 1.212768711411627e-05
392.49774169921875 1.2171143680461682e-05
392.51776123046875 1.2214934031362645e-05
392.5377502441406 1.22589253805927e-05
392.5577392578125 1.2303187759243883e-05
392.5777587890625 1.2347791198408231e-05
392.5977478027344 1.239260564034339e-05
392.61773681640625 1.2437698387657292e-05
392.63775634765625 1.2483144018915482e-05
392.6577453613281 1.252880429092329e-05
392.677734375 1.2574751963256858e-05
392.69775390625 1.262106070498703e-05
392.7177429199219 1.2667593182413839e-05
392.7377624511719 1.2714494005194865e-05
392.75775146484375 1.2761620382661931e-05
392.77777099609375 1.2809123290935531e-05
392.7977600097656 1.2856852663389873e-05
392.8177490234375 1.2904891264042817e-05
392.8377685546875 1.295331367145991e-05
392.8577575683594 1.300197072851006e-05
392.87774658203125 1.3050943380221725e-05
392.89776611328125 1.3100307114655152e-05
392.9177551269531 1.3149916412658058e-05
392.937744140625 1.3199844943301287e-05
392.957763671875 1.3250175470602699e-05
392.9777526855469 1.3300759746925905e-05
392.9977722167969 1.3351749657886103e-05
393.01776123046875 1.3402995136857498e-05
393.0377502441406 1.3454578947857954e-05
393.0577697753906 1.3506581126421224e-05
393.0777587890625 1.3558850696426816e-05
393.0977478027344 1.3611465874419082e-05
393.1177673339844 1.366451306239469e-05
393.13775634765625 1.3717834008275531e-05
393.1577453613281 1.377151238557417e-05
393.1777648925781 1.3825636415276676e-05
393.19775390625 1.3880044207326137e-05
393.2177429199219 1.3934821254224516e-05
393.2377624511719 1.3990057595947292e-05
393.25775146484375 1.4045586794964038e-05
393.27777099609375 1.410158074577339e-05
393.2977600097656 1.415787664882373e-05
393.3177795410156 1.4214650036592502e-05
393.3377685546875 1.4271727195591666e-05
393.3577575683594 1.43291999847861e-05
393.3777770996094 1.4387165720108896e-05
393.39776611328125 1.4445442502619699e-05
393.4177551269531 1.4504132195725106e-05
393.4377746582031 1.4563323929905891e-05
393.457763671875 1.4622842172684614e-05
393.4777526855469 1.4682780602015555e-05
393.4977722167969 1.4743238352821209e-05
393.51776123046875 1.4804034435655922e-05
393.53778076171875 1.4865355296933558e-05
393.5577697753906 1.4927023585187271e-05
393.5777587890625 1.4989136616350152e-05
393.5977783203125 1.5051795344334096e-05
393.6177673339844 1.5114809684746433e-05
393.63775634765625 1.5178284229477867e-05
393.65777587890625 1.5242322660924401e-05
393.6777648925781 1.5306730347219855e-05
393.69775390625 1.5371617337223142e-05
393.7177734375 1.5437080946867354e-05
393.7377624511719 1.550293200125452e-05
393.7577819824219 1.556937422719784e-05
393.77777099609375 1.5636212992831133e-05
393.79779052734375 1.5703653843957e-05
393.8177795410156 1.5771500329719856e-05
393.8377685546875 1.583985795150511e-05
393.8577880859375 1.5908841305645183e-05
393.8777770996094 1.5978239389369264e-05
393.89776611328125 1.604816861799918e-05
393.91778564453125 1.6118738130899146e-05
393.9377746582031 1.618973874428775e-05
393.957763671875 1.6261288692476228e-05
393.977783203125 1.6333502571797e-05
393.9977722167969 1.6406160284532234e-05
394.0177917480469 1.64795001182938e-05
394.03778076171875 1.655329469940625e-05
394.0577697753906 1.6627669538138434e-05
394.0777893066406 1.670274286880158e-05
394.0977783203125 1.6778292774688452e-05
394.1177673339844 1.6854441128089093e-05
394.1377868652344 1.6931318896240555e-05
394.15777587890625 1.7008693248499185e-05
394.1777648925781 1.7086684238165617e-05
394.1977844238281 1.716542465146631e-05
394.2177734375 1.724468711472582e-05
394.23779296875 1.7324717191513628e-05
394.2577819824219 1.7405276594217867e-05
394.27777099609375 1.7486498109064996e-05
394.29779052734375 1.7568512703292072e-05
394.3177795410156 1.7651080270297825e-05
394.3377990722656 1.7734462744556367e-05
394.3577880859375 1.781840910553001e-05
394.3777770996094 1.790306305338163e-05
394.3977966308594 1.7988557374337688e-05
394.41778564453125 1.8074639228871092e-05
394.4377746582031 1.8161448679165915e-05
394.4577941894531 1.824913124437444e-05
394.477783203125 1.8337428628001362e-05
394.497802734375 1.842661004047841e-05
394.5177917480469 1.8516428099246696e-05
394.53778076171875 1.8607017409522086e-05
394.55780029296875 1.869852712843567e-05
394.5777893066406 1.879069532151334e-05
394.5977783203125 1.888366932689678e-05
394.6177978515625 1.897759830171708e-05
394.6377868652344 1.9072216673521325e-05
394.65777587890625 1.9167668142472394e-05
394.67779541015625 1.926411823660601e-05
394.6977844238281 1.9361281374585815e-05
394.7177734375 1.945931580848992e-05
394.73779296875 1.9558392523322254e-05
394.7577819824219 1.9658211385831237e-05
394.7778015136719 1.9759096176130697e-05
394.79779052734375 1.986075221793726e-05
394.8177795410156 1.9963343220297247e-05
394.8377990722656 2.0067043806193396e-05
394.8577880859375 2.017154656641651e-05
394.8778076171875 2.027718619501684e-05
394.8977966308594 2.0383655282785185e-05
394.91778564453125 2.0491126633714885e-05
394.93780517578125 2.0599783965735696e-05
394.9577941894531 2.0709307136712596e-05
394.977783203125 2.0819876226596534e-05
394.997802734375 2.093168041028548e-05
395.0177917480469 2.1044392269686796e-05
395.0378112792969 2.1158366507734172e-05
395.05780029296875 2.127327570633497e-05
395.0777893066406 2.1389305402408354e-05
395.0978088378906 2.150665568478871e-05
395.1177978515625 2.1624993678415194e-05
395.1377868652344 2.1744499463238753e-05
395.1578063964844 2.1865385861019604e-05
395.17779541015625 2.1987294530845247e-05
395.1977844238281 2.21104401134653e-05
395.2178039550781 2.223502451670356e-05
395.23779296875 2.236069121863693e-05
395.2578125 2.2487838577944785e-05
395.2778015136719 2.2616102796746418e-05
395.29779052734375 2.274569487781264e-05
395.31781005859375 2.2876844013808295e-05
395.3377990722656 2.300916639796924e-05
395.3577880859375 2.3142885765992105e-05
395.3778076171875 2.327823131054174e-05
395.3977966308594 2.3414806491928175e-05
395.4178161621094 2.3553058781544678e-05
395.43780517578125 2.369258800172247e-05
395.4577941894531 2.3833632440073416e-05
395.4778137207031 2.397643038420938e-05
395.497802734375 2.4120574380503967e-05
395.517822265625 2.426653190923389e-05
395.5378112792969 2.441388278384693e-05
395.55780029296875 2.456287074892316e-05
395.57781982421875 2.47137613769155e-05
395.5978088378906 2.48661199293565e-05
395.6177978515625 2.5020204702741466e-05
395.6378173828125 2.5176290364470333e-05
395.6578063964844 2.5333927624160424e-05
395.67779541015625 2.549338933022227e-05
395.69781494140625 2.5654946512077004e-05
395.7178039550781 2.581814806035254e-05
395.73779296875 2.5983275918406434e-05
