Energy XES
355.0850830078125 4.011433247796958e-06
355.1051025390625 4.244110186846228e-06
355.1250915527344 4.5288115870789625e-06
355.1451110839844 4.7974481276469305e-06
355.16510009765625 5.0440876293578185e-06
355.1850891113281 5.2654895625892095e-06
355.2051086425781 5.459862222778611e-06
355.22509765625 5.626075108011719e-06
355.2450866699219 5.7652609939395916e-06
355.2651062011719 5.879495347471675e-06
355.28509521484375 5.971105565549806e-06
355.3050842285156 6.043392204446718e-06
355.3251037597656 6.099659003666602e-06
355.3450927734375 6.1428709159372374e-06
355.3651123046875 6.176011993375141e-06
355.3851013183594 6.201441010489361e-06
355.4051208496094 6.221275725692976e-06
355.42510986328125 6.237070465431316e-06
355.4450988769531 6.250087608350441e-06
355.4651184082031 6.261253929551458e-06
355.485107421875 6.271183337958064e-06
355.5050964355469 6.28033831162611e-06
355.5251159667969 6.289030807238305e-06
355.54510498046875 6.297428626567125e-06
355.5650939941406 6.305665920081083e-06
355.5851135253906 6.313828635029495e-06
355.6051025390625 6.321937689790502e-06
355.6250915527344 6.330029918899527e-06
355.6451110839844 6.3381339714396745e-06
355.66510009765625 6.346233021758962e-06
355.68511962890625 6.354354809445795e-06
355.7051086425781 6.362477506627329e-06
355.72509765625 6.370614755724091e-06
355.7451171875 6.37878110865131e-06
355.7651062011719 6.386949280567933e-06
355.78509521484375 6.395132459147135e-06
355.80511474609375 6.403346560546197e-06
355.8251037597656 6.411565209418768e-06
355.8450927734375 6.419801593438024e-06
355.8651123046875 6.428068445529789e-06
355.8851013183594 6.436343028326519e-06
355.9051208496094 6.444649443437811e-06
355.92510986328125 6.4529626797593664e-06
355.94512939453125 6.461306838900782e-06
355.9651184082031 6.46965736450511e-06
355.985107421875 6.478025170508772e-06
356.005126953125 6.486424808826996e-06
356.0251159667969 6.494826720881974e-06
356.04510498046875 6.5032450038415845e-06
356.06512451171875 6.511691935884301e-06
356.0851135253906 6.520141596411122e-06
356.1051025390625 6.5286067183478735e-06
356.1251220703125 6.537100489367731e-06
356.1451110839844 6.545596988871694e-06
356.1651306152344 6.554122137458762e-06
356.18511962890625 6.5626481955405325e-06
356.2051086425781 6.5711915340216365e-06
356.2251281738281 6.579762157343794e-06
356.2451171875 6.5883341449080035e-06
356.2651062011719 6.596920684387442e-06
356.2851257324219 6.605535872949986e-06
356.30511474609375 6.614154244743986e-06
356.3251037597656 6.622788987442618e-06
356.3451232910156 6.631455107708462e-06
356.3651123046875 6.640126230195165e-06
356.3851013183594 6.6488182710600086e-06
356.4051208496094 6.657543053734116e-06
356.4251403808594 6.6662896642810665e-06
356.44512939453125 6.67504309603828e-06
356.4651184082031 6.683817900920985e-06
356.4851379394531 6.692626811855007e-06
356.505126953125 6.701442543999292e-06
356.5251159667969 6.710277375532314e-06
356.5451354980469 6.719143129885197e-06
356.56512451171875 6.72801434120629e-06
356.5851135253906 6.736901923432015e-06
356.6051330566406 6.7458204284776e-06
356.6251220703125 6.75474120725994e-06
356.6451416015625 6.76369290886214e-06
356.6651306152344 6.7726468842010945e-06
356.68511962890625 6.781618139939383e-06
356.70513916015625 6.7906189542554785e-06
356.7251281738281 6.799622042308329e-06
356.7451171875 6.808641501265811e-06
356.76513671875 6.817692337790504e-06
356.7851257324219 6.826745448051952e-06
356.80511474609375 6.835816293460084e-06
356.82513427734375 6.8449189711827785e-06
356.8451232910156 6.854028015368385e-06
356.8651123046875 6.86315661369008e-06
356.8851318359375 6.872321591799846e-06
356.9051208496094 6.8814952101092786e-06
356.9251403808594 6.89070429871208e-06
356.94512939453125 6.8999224822619e-06
356.96514892578125 6.909176590852439e-06
356.9851379394531 6.918437065905891e-06
357.005126953125 6.927720278326888e-06
357.025146484375 6.9370371420518495e-06
357.0451354980469 6.946358098502969e-06
357.06512451171875 6.9556981543428265e-06
357.08514404296875 6.965070042497246e-06
357.1051330566406 6.974445568630472e-06
357.1251220703125 6.983837920415681e-06
357.1451416015625 6.993262104515452e-06
357.1651306152344 7.002689471846679e-06
357.1851501464844 7.01214958098717e-06
357.20513916015625 7.0216133281064685e-06
357.2251281738281 7.0310939008777495e-06
357.2451477050781 7.040607670205645e-06
357.26513671875 7.050124622764997e-06
357.2851257324219 7.0596597652183846e-06
357.3051452636719 7.069228104228387e-06
357.32513427734375 7.078800535964547e-06
357.3451232910156 7.088391612342093e-06
357.3651428222656 7.098017704265658e-06
357.3851318359375 7.107651072146837e-06
357.4051513671875 7.117319910321385e-06
357.4251403808594 7.126996024453547e-06
357.44512939453125 7.136696240195306e-06
357.46514892578125 7.1464351094618905e-06
357.4851379394531 7.156182618928142e-06
357.5051574707031 7.165968781919219e-06
357.525146484375 7.175763585109962e-06
357.5451354980469 7.1855833994050045e-06
357.5651550292969 7.1954400482354686e-06
357.58514404296875 7.205304427770898e-06
357.6051330566406 7.215190180431819e-06
357.6251525878906 7.225112767628161e-06
357.6451416015625 7.235040357045364e-06
357.6651611328125 7.245002962008584e-06
357.6851501464844 7.254970114445314e-06
357.70513916015625 7.264954547281377e-06
357.72515869140625 7.274973086168757e-06
357.7451477050781 7.284994353540242e-06
357.76513671875 7.295033810805762e-06
357.78515625 7.3051060098805465e-06
357.8051452636719 7.315182301681489e-06
357.82513427734375 7.3252767833764665e-06
357.84515380859375 7.335407190112164e-06
357.8651428222656 7.3455435085634235e-06
357.8851318359375 7.355700745392824e-06
357.9051513671875 7.365897999989102e-06
357.9251403808594 7.376103440037696e-06
357.9451599121094 7.386347988358466e-06
357.96514892578125 7.396603905363008e-06
357.9851379394531 7.4068848334718496e-06
358.0051574707031 7.41720623409492e-06
358.025146484375 7.42753809390706e-06
358.045166015625 7.437911335728131e-06
358.0651550292969 7.448293217748869e-06
358.08514404296875 7.4586978371371515e-06
358.10516357421875 7.469142019544961e-06
358.1251525878906 7.479591658920981e-06
358.1451416015625 7.4900635809171945e-06
358.1651611328125 7.5005732469435316e-06
358.1851501464844 7.5110874604433775e-06
358.2051696777344 7.521638053731294e-06
358.22515869140625 7.53219319449272e-06
358.2451477050781 7.542770163126988e-06
358.2651672363281 7.5533835115493275e-06
358.28515625 7.564000497950474e-06
358.3051452636719 7.574640221719164e-06
358.3251647949219 7.5853181442653295e-06
358.34515380859375 7.596002433274407e-06
358.3651428222656 7.606709459651029e-06
358.3851623535156 7.6174565037945285e-06
358.4051513671875 7.6282108238956425e-06
358.4251708984375 7.63900789024774e-06
358.4451599121094 7.649810868315399e-06
358.46514892578125 7.660640221729409e-06
358.48516845703125 7.6715114118997e-06
358.5051574707031 7.68239169701701e-06
358.525146484375 7.693298357480671e-06
358.545166015625 7.704249583184719e-06
358.5651550292969 7.715210813330486e-06
358.5851745605469 7.726215699221939e-06
358.60516357421875 7.737229680060409e-06
358.6251525878906 7.748270945739932e-06
358.6451721191406 7.759354957670439e-06
358.6651611328125 7.770445336063858e-06
358.6851806640625 7.781576641718857e-06
358.7051696777344 7.792714313836768e-06
358.72515869140625 7.803874723322224e-06
358.74517822265625 7.815073331585154e-06
358.7651672363281 7.82627466833219e-06
358.78515625 7.837498742446769e-06
358.80517578125 7.848760105844121e-06
358.8251647949219 7.860026016714983e-06
358.84515380859375 7.871312845963985e-06
358.86517333984375 7.882641511969268e-06
358.8851623535156 7.893976544437464e-06
358.9051513671875 7.905336133262608e-06
358.9251708984375 7.916740287328139e-06
358.9451599121094 7.928153536340687e-06
358.9651794433594 7.939610441098921e-06
358.98516845703125 7.95108007878298e-06
359.0051574707031 7.962578820297495e-06
359.0251770019531 7.9741239460418e-06
359.045166015625 7.98568180471193e-06
359.0651550292969 7.997268767212518e-06
359.0851745605469 8.008903023437597e-06
359.10516357421875 8.0205491030938e-06
359.12518310546875 8.032241566979792e-06
359.1451721191406 8.043944035307504e-06
359.1651611328125 8.05567378847627e-06
359.1851806640625 8.06744719739072e-06
359.2051696777344 8.079228791757487e-06
359.2251892089844 8.09105495136464e-06
359.24517822265625 8.102888386929408e-06
359.2651672363281 8.11474455986172e-06
359.2851867675781 8.126642569550313e-06
359.30517578125 8.13854785519652e-06
359.3251647949219 8.150477697199676e-06
359.3451843261719 8.162449375959113e-06
359.36517333984375 8.174430149665568e-06
359.3851623535156 8.186437298718374e-06
359.4051818847656 8.198487194022164e-06
359.4251708984375 8.21054527477827e-06
359.4451904296875 8.222651558753569e-06
359.4651794433594 8.234766028181184e-06
359.48516845703125 8.246908691944554e-06
359.50518798828125 8.259097739937715e-06
359.5251770019531 8.271298611361999e-06
359.545166015625 8.28352858661674e-06
359.565185546875 8.29580949357478e-06
359.5851745605469 8.308102223963942e-06
359.6051940917969 8.320445886056405e-06
359.62518310546875 8.332804100064095e-06
359.6451721191406 8.345191417902242e-06
359.6651916503906 8.35763057693839e-06
359.6851806640625 8.370081559405662e-06
359.7052001953125 8.38258165458683e-06
359.7251892089844 8.395091754209716e-06
359.74517822265625 8.407629138673656e-06
359.76519775390625 8.420213816862088e-06
359.7851867675781 8.432804861513432e-06
359.80517578125 8.445422281511128e-06
359.8251953125 8.45808426674921e-06
359.8451843261719 8.470753527944908e-06
359.86517333984375 8.483451892971061e-06
359.88519287109375 8.496196642227005e-06
359.9051818847656 8.508949576935265e-06
359.9252014160156 8.52175071486272e-06
359.9451904296875 8.534561857231893e-06
359.9651794433594 8.547403012926225e-06
359.9851989746094 8.560293281334452e-06
360.00518798828125 8.573195373173803e-06
360.0251770019531 8.586128387833014e-06
360.0451965332031 8.599112334195524e-06
360.065185546875 8.61210901348386e-06
360.0851745605469 8.625138434581459e-06
360.1051940917969 8.638224244350567e-06
360.12518310546875 8.651324606034905e-06
360.14520263671875 8.664478627906647e-06
360.1651916503906 8.677648111188319e-06
360.1852111816406 8.6908739831415e-06
360.2052001953125 8.704113497515209e-06
360.2251892089844 8.717386663192883e-06
360.2452087402344 8.730710760573857e-06
360.26519775390625 8.74404486239655e-06
360.2851867675781 8.757411706028506e-06
360.3052062988281 8.770824933890253e-06
360.3251953125 8.784245437709615e-06
360.3451843261719 8.797695954854134e-06
360.3652038574219 8.811194675217848e-06
360.38519287109375 8.824701581033878e-06
360.4051818847656 8.838237590680365e-06
360.4252014160156 8.85182453203015e-06
360.4451904296875 8.865421477821656e-06
360.4652099609375 8.879070264811162e-06
360.4851989746094 8.892731784726493e-06
360.50518798828125 8.906425136956386e-06
360.52520751953125 8.920169420889579e-06
360.5451965332031 8.933928256738e-06
360.565185546875 8.947718924900983e-06
360.585205078125 8.961567800724879e-06
360.6051940917969 8.975430318969302e-06
360.62518310546875 8.989330126496498e-06
360.64520263671875 9.00328996067401e-06
360.6651916503906 9.017267075250857e-06
360.6852111816406 9.031303306983318e-06
360.7052001953125 9.045357728609815e-06
360.7252197265625 9.059471267391928e-06
360.7452087402344 9.073602086573374e-06
360.76519775390625 9.087768376048189e-06
360.78521728515625 9.101991963689215e-06
360.8052062988281 9.116229193750769e-06
360.8251953125 9.130499165621586e-06
360.84521484375 9.144825526163913e-06
360.8652038574219 9.159163710137364e-06
360.88519287109375 9.173532816930674e-06
360.90521240234375 9.187959221890196e-06
360.9252014160156 9.20239654078614e-06
360.9452209472656 9.216889338858891e-06
360.9652099609375 9.231392141373362e-06
360.9851989746094 9.245929504686501e-06
361.0052185058594 9.260522347176448e-06
361.02520751953125 9.275126103602815e-06
361.0451965332031 9.289762601838447e-06
361.0652160644531 9.304454579250887e-06
361.085205078125 9.319161108578555e-06
361.1051940917969 9.333902198704891e-06
361.1252136230469 9.348704224976245e-06
361.14520263671875 9.36352171265753e-06
361.1651916503906 9.378381037095096e-06
361.1852111816406 9.393304026161786e-06
361.2052307128906 9.40826976147946e-06
361.2252197265625 9.423252777196467e-06
361.2452087402344 9.43827944865916e-06
361.2652282714844 9.453369784750976e-06
361.28521728515625 9.468477401242126e-06
361.3052062988281 9.48362321651075e-06
361.3252258300781 9.498830877419095e-06
361.34521484375 9.514050361758564e-06
361.3652038574219 9.529308044875506e-06
361.3852233886719 9.544624845148064e-06
361.40521240234375 9.559955287841149e-06
361.4252014160156 9.5753202913329e-06
361.4452209472656 9.590744411980268e-06
361.4652099609375 9.606183994037565e-06
361.4852294921875 9.621684512239881e-06
361.5052185058594 9.63719685387332e-06
361.52520751953125 9.652749213273637e-06
361.54522705078125 9.668363418313675e-06
361.5652160644531 9.68399217526894e-06
361.585205078125 9.699660949991085e-06
361.605224609375 9.715393389342353e-06
361.6252136230469 9.73114583757706e-06
361.64520263671875 9.74694103206275e-06
361.66522216796875 9.762804438651074e-06
361.6852111816406 9.778686944628134e-06
361.7052307128906 9.794640391191933e-06
361.7252197265625 9.810615665628575e-06
361.7452392578125 9.82665915216785e-06
361.7652282714844 9.842724466579966e-06
361.78521728515625 9.858833436737768e-06
361.80523681640625 9.8750088000088e-06
361.8252258300781 9.891202353173867e-06
361.84521484375 9.907436833600514e-06
361.865234375 9.923734978656285e-06
361.8852233886719 9.940047675627284e-06
361.90521240234375 9.956401299859863e-06
361.92523193359375 9.97282040771097e-06
361.9452209472656 9.989254067477304e-06
361.9652404785156 1.000575502985157e-05
361.9852294921875 1.0022270544141065e-05
362.0052185058594 1.0038826076197438e-05
362.0252380371094 1.0055447091872338e-05
362.04522705078125 1.0072082659462467e-05
362.0652160644531 1.0088759154314175e-05
362.0852355957031 1.0105502951773815e-05
362.105224609375 1.0122261301148683e-05
362.1252136230469 1.0139063306269236e-05
362.1452331542969 1.0155934432987124e-05
362.16522216796875 1.0172823749599047e-05
362.1852111816406 1.018975945044076e-05
362.2052307128906 1.0206770639342722e-05
362.2252197265625 1.022380638460163e-05
362.2452392578125 1.0240918527415488e-05
362.2652282714844 1.0258054317091592e-05
362.2852478027344 1.0275266504322644e-05
362.30523681640625 1.029250597639475e-05
362.3252258300781 1.030979365168605e-05
362.3452453613281 1.0327157724532299e-05
362.365234375 1.0344544534746092e-05
362.3852233886719 1.0361976819694974e-05
362.4052429199219 1.0379482773714699e-05
362.42523193359375 1.039700691762846e-05
362.44525146484375 1.0414602002128959e-05
362.4652404785156 1.0432214367028791e-05
362.4852294921875 1.044987038767431e-05
362.5052490234375 1.0467598258401267e-05
362.5252380371094 1.0485341590538155e-05
362.54522705078125 1.0503128578420728e-05
362.56524658203125 1.0520988325879443e-05
362.5852355957031 1.0538866263232194e-05
362.605224609375 1.0556790584814735e-05
362.625244140625 1.0574787665973417e-05
362.6452331542969 1.0592809303489048e-05
362.66522216796875 1.061087823472917e-05
362.68524169921875 1.0629028110997751e-05
362.7052307128906 1.0647201634128578e-05
362.7252502441406 1.066545519279316e-05
362.7452392578125 1.0683738764782902e-05
362.7652282714844 1.0702075087465346e-05
362.7852478027344 1.0720496902649757e-05
362.80523681640625 1.0738944183685817e-05
362.82525634765625 1.0757473319245037e-05
362.8452453613281 1.077602973964531e-05
362.865234375 1.0794638001243584e-05
362.88525390625 1.0813327207870316e-05
362.9052429199219 1.0832039151864592e-05
362.92523193359375 1.0850800208572764e-05
362.94525146484375 1.0869639481825288e-05
362.9652404785156 1.0888496944971848e-05
362.9852600097656 1.0907433534157462e-05
363.0052490234375 1.0926388313237112e-05
363.0252380371094 1.0945392205030657e-05
363.0452575683594 1.0964473403873853e-05
363.06524658203125 1.0983577340084594e-05
363.0852355957031 1.1002732207998633e-05
363.1052551269531 1.102196802094113e-05
363.125244140625 1.1041228390240576e-05
363.1452331542969 1.1060543329222128e-05
363.1652526855469 1.1079944670200348e-05
363.18524169921875 1.1099369658040814e-05
363.20526123046875 1.1118880138383247e-05
363.2252502441406 1.1138418813061435e-05
363.2452392578125 1.1158014785905834e-05
363.2652587890625 1.1177697160746902e-05
363.2852478027344 1.1197408639418427e-05
363.30523681640625 1.1217176506761461e-05
363.32525634765625 1.1237032595090568e-05
363.3452453613281 1.1256920515734237e-05
363.3652648925781 1.1276896657363977e-05
363.38525390625 1.1296901902824175e-05
363.4052429199219 1.1316966265439987e-05
363.4252624511719 1.1337121577525977e-05
363.44525146484375 1.1357305083947722e-05
363.46527099609375 1.1377576811355539e-05
363.4852600097656 1.1397874914109707e-05
363.5052490234375 1.1418227586545981e-05
363.5252685546875 1.143866938946303e-05
363.5452575683594 1.1459134839242324e-05
363.56524658203125 1.1479653949209023e-05
363.58526611328125 1.1500262189656496e-05
363.6052551269531 1.1520894986460917e-05
363.625244140625 1.1541585081431549e-05
363.645263671875 1.1562363397388253e-05
363.6652526855469 1.1583168998186011e-05
363.6852722167969 1.1604064638959244e-05
363.70526123046875 1.1624990293057635e-05
363.7252502441406 1.1645976883301046e-05
363.7452697753906 1.1667057151498739e-05
363.7652587890625 1.1688168342516292e-05
363.7852478027344 1.1709345926647075e-05
363.8052673339844 1.1730620826710947e-05
363.82525634765625 1.175193210656289e-05
363.84527587890625 1.1773342521337327e-05
363.8652648925781 1.1794789315899834e-05
363.88525390625 1.1816306141554378e-05
363.9052734375 1.1837926649604924e-05
363.9252624511719 1.1859579899464734e-05
363.9452819824219 1.1881332284247037e-05
363.96527099609375 1.1903116501343902e-05
363.9852600097656 1.1924961654585786e-05
364.0052795410156 1.194690412376076e-05
364.0252685546875 1.196887023979798e-05
364.0452575683594 1.1990897291980218e-05
364.0652770996094 1.2013016203127336e-05
364.08526611328125 1.2035162399115507e-05
364.1052551269531 1.2057368621753994e-05
364.1252746582031 1.2079672160325572e-05
364.145263671875 1.2102004802727606e-05
364.1652526855469 1.212440383824287e-05
364.1852722167969 1.2146902918175329e-05
364.20526123046875 1.2169436558906455e-05
364.22528076171875 1.2192073882033583e-05
364.2452697753906 1.2214744856464677e-05
364.2652587890625 1.223748768097721e-05
364.2852783203125 1.226033600687515e-05
364.3052673339844 1.228322071256116e-05
364.32525634765625 1.2306179996812716e-05
364.34527587890625 1.2329247510933783e-05
364.3652648925781 1.235235595231643e-05
364.3852844238281 1.2375577171042096e-05
364.4052734375 1.239883840753464e-05
364.4252624511719 1.2422176951076835e-05
364.4452819824219 1.2445625543477945e-05
364.46527099609375 1.2469111425161827e-05
364.48529052734375 1.249270553671522e-05
364.5052795410156 1.2516336028056685e-05
364.5252685546875 1.2540036550490186e-05
364.5452880859375 1.2563843483803794e-05
364.5652770996094 1.2587684068421368e-05
364.58526611328125 1.2611593774636276e-05
364.60528564453125 1.2635610801225994e-05
364.6252746582031 1.2659661479119677e-05
364.645263671875 1.2683785826084204e-05
364.665283203125 1.2708020221907645e-05
364.6852722167969 1.2732292816508561e-05
364.7052917480469 1.2756675459968392e-05
364.72528076171875 1.2781093573721591e-05
364.7452697753906 1.280558808502974e-05
364.7652893066406 1.2830194464186206e-05
